#Frequenzy_Filter_curve V_in=106 +/- 0.5 mV  G(f)=V_out/V_in
# frequenzy[kHz] V_out +/- 0.01 [mV] 
0.1 1.12
0.2 4.32 
0.3 9.63
0.4 16.9
0.5 25.9
0.6 36.4 
0.7 47.2
0.8 57.6
0.9 67.3
1.0 75.5
1.1 82.3
1.2 87.7
1.3 92.7
1.4 95.1
1.5 97.6
1.6 99.4
1.7 100
1.8 102
1.9 104
2.0 103
4.0 105
6.0 100 
7.0 95.4
7.2 94.9
7.4 93.5
7.6 91.5
7.8 90.0
8.0 89.5
8.2 89.0
8.4 88.2
8.6 86.8
8.8 85.0
9.0 82.7
9.2 80.5
9.4 78.5
9.6 77.0
9.8 76.0
10.0 75.2
10.5 72.5
11.0 67.7
11.5 63.7
12.0 60.6
12.5 57.9
13.0 54.1
13.5 50.8
14.0 48.2
14.5 45.8
15.0 43.1
15.5 40.7
16.0 38.6
20.0 25.7
25.0 15.5
30.0 11.7
35.0 8.73
40.0 6.67
45.0 5.26
50.0 4.33
55.0 3.64 
60.0 3.08 
70.0 2.34
80.0 1.88 
90.0 1.59
100.0 1.41
